num crossings	time (s)	maj axis (mm)	min axis (mm)	theta (rad )	slope (V/s)
5517	6467.879127	56.600982	1.141518	5.547959	44.012453
5519	6469.972207	56.577787	1.126503	5.547115	44.028237
5521	6472.064911	56.524766	1.143053	5.547997	42.666621
5523	6474.157706	56.511733	1.152634	5.547654	43.404170
5525	6476.250998	56.451459	1.147910	5.547530	43.802409
5527	6478.343658	56.448572	1.161123	5.547172	43.985296
5529	6480.437469	55.068614	0.878702	5.550301	42.658929
5531	6482.530063	57.528915	1.175631	5.539531	42.814855
5533	6484.622704	54.780602	1.006025	5.561301	43.311264
5535	6486.715940	56.367037	1.169077	5.547073	43.635905
5537	6488.809142	56.325831	1.164988	5.547035	41.917257
5541	6492.995050	56.179132	1.271123	5.545563	42.596547
5543	6495.088396	55.128449	0.881964	5.550107	41.771589
5545	6497.181304	56.233425	1.186410	5.546249	43.629892
5547	6499.274015	57.372893	1.193531	5.538183	43.029772
5551	6503.460124	56.219175	1.257771	5.545037	42.728790
5555	6507.645908	54.587134	1.016698	5.558936	44.163205
5557	6509.739157	54.428988	0.958614	5.549295	41.242999
5561	6513.925233	56.086218	1.281252	5.544228	42.449062
5563	6516.018511	56.089016	1.189264	5.544541	42.509294
5565	6518.110672	56.139579	1.204292	5.544890	42.609592
5567	6520.204244	56.071043	1.231611	5.545410	42.125971
5569	6522.297157	54.925156	0.932190	5.548893	42.422512
5571	6524.391048	56.047078	1.223236	5.544222	42.752639
5573	6526.483376	56.062825	1.212992	5.544034	42.544387
5575	6528.576971	57.365374	1.223651	5.535510	42.001138
5577	6530.669412	56.024867	1.278038	5.543828	43.826748
5581	6534.855111	54.376716	1.056046	5.557711	42.918820
5583	6536.948154	54.804821	0.955078	5.547385	42.969609
5585	6539.041205	56.037064	1.258847	5.544129	40.495915
5587	6541.134742	57.239232	1.254441	5.536126	40.896903
5589	6543.226498	56.012467	1.324849	5.542012	42.710614
5591	6545.320408	54.674835	0.982857	5.550438	41.671134
5593	6547.413033	54.636947	0.962008	5.548045	41.002257
5601	6555.784296	55.857596	1.345798	5.542220	43.591281
5605	6559.970698	55.899512	1.323674	5.542476	42.810866
5607	6562.063949	54.690207	0.978688	5.546904	41.696034
5609	6564.156945	55.893782	1.273152	5.542648	40.465057
5611	6566.250016	56.658924	5.065472	5.518959	41.560804
5613	6568.342996	54.435846	1.108820	5.557423	41.425558
5615	6570.436153	55.872286	1.283250	5.542300	42.245542
5617	6572.529454	56.643668	4.787983	5.520443	42.526616
5619	6574.621607	55.830900	1.362443	5.541227	42.201402
5621	6576.714526	55.874368	1.278917	5.541796	42.355724
5623	6578.808314	55.855043	1.296057	5.541620	40.887478
5625	6580.900914	56.649661	3.967630	5.521136	42.318584
5627	6582.994101	54.393653	1.144052	5.557283	43.040745
5629	6585.086794	55.814282	1.295101	5.541497	42.391725
5631	6587.179987	55.843305	1.291503	5.541301	41.405990
5633	6589.273020	54.584016	1.002319	5.545783	42.552148
5635	6591.365383	55.863379	1.299209	5.540807	42.356470
5637	6593.458794	55.845012	1.299057	5.540906	41.373241
5639	6595.551859	55.811400	1.300644	5.540785	40.197847
5641	6597.644431	55.838783	1.312892	5.540640	42.812788
5643	6599.738048	55.835958	1.309938	5.540607	43.173590
5645	6601.830439	55.845582	1.319449	5.540474	41.746766
5647	6603.924004	56.675711	4.888280	5.518331	41.792180
5649	6606.016738	55.749584	1.359152	5.540335	42.321333
5651	6608.109732	55.772211	1.304134	5.540130	43.165117
5653	6610.203621	55.802242	1.314070	5.539714	40.953559
5655	6612.296095	55.826399	1.322344	5.539779	40.412037
5659	6616.481829	55.707522	1.378469	5.538842	41.890643
5661	6618.575062	55.807993	1.318415	5.539421	42.289769
5665	6622.760630	55.753745	1.382425	5.538627	41.271709
5667	6624.854022	54.363435	1.036185	5.543958	40.626925
5669	6626.946665	56.601745	5.160542	5.518551	41.143406
5673	6631.132863	55.727917	1.408415	5.537988	41.273293
5677	6635.319041	55.666738	1.389191	5.537943	41.528812
5679	6637.412186	56.680045	5.355827	5.514556	41.948326
5683	6641.598352	55.701944	1.412163	5.536978	42.200641
5689	6647.877143	55.738028	1.385846	5.537430	41.142974
5691	6649.969589	55.738886	1.327183	5.537774	41.546078
5693	6652.063098	54.449647	1.021167	5.541825	43.065845
5695	6654.155972	54.589223	1.022875	5.541264	42.881780
5697	6656.248686	55.749162	1.340726	5.537234	43.587066
5699	6658.341289	55.771596	1.329765	5.537195	39.772908
5701	6660.434595	54.461034	1.045467	5.540584	41.781768
5703	6662.527864	55.776094	1.339907	5.537013	43.557596
5707	6666.713694	55.706610	1.401014	5.536044	42.350457
5709	6668.807154	55.714967	1.334151	5.536750	42.058010
5711	6670.899789	56.903458	1.348999	5.528132	41.874879
5713	6672.992643	54.386928	1.162632	5.551505	43.590647
5715	6675.085433	54.489281	1.033197	5.539984	41.612600
5717	6677.178806	55.750678	1.329142	5.536091	42.555788
5719	6679.271453	54.604140	1.027876	5.539435	42.120706
5721	6681.364605	54.470584	1.106249	5.541009	40.959102
5723	6683.458411	56.322554	4.910987	5.513601	41.390710
5725	6685.550840	55.735764	1.381246	5.535003	42.342272
5727	6687.643557	54.544464	1.041682	5.539730	42.084392
5729	6689.736681	56.596247	4.762099	5.514772	41.913386
5735	6696.015390	53.944527	1.139271	5.548419	41.788370
5739	6700.201954	54.523743	1.183193	5.551832	41.045969
5741	6702.294792	57.081670	1.353476	5.526350	41.133855
5743	6704.387578	54.310378	1.169675	5.550790	42.182806
5745	6706.480639	55.793471	1.340698	5.534503	41.453815
5747	6708.573742	55.736014	1.351092	5.535190	42.368710
5749	6710.666753	55.718431	1.357447	5.534694	40.246210
5751	6712.759457	55.755026	1.345447	5.534690	40.738436
5755	6716.945028	55.654490	1.452851	5.532997	42.759999
5759	6721.131338	55.656174	1.432153	5.532939	41.216895
5761	6723.223908	55.750939	1.351260	5.533895	42.090019
5763	6725.317400	55.751747	1.353000	5.533786	42.651476
5765	6727.410586	55.737465	1.354766	5.533648	41.433939
5767	6729.503002	55.750732	1.375970	5.533106	41.713948
5769	6731.595839	54.551508	1.068428	5.537334	40.329590
5771	6733.689210	55.727970	1.363715	5.533046	42.210636
5773	6735.782749	55.723132	1.345112	5.532295	42.145109
5775	6737.875599	55.697164	1.349488	5.533189	41.526550
5777	6739.968476	54.134022	1.042987	5.535325	42.809458
5779	6742.061228	55.747517	1.341577	5.532857	42.123596
5781	6744.153945	55.727296	1.351341	5.532477	41.346519
5783	6746.247472	55.727185	1.369831	5.532426	42.487287
5785	6748.340304	55.716969	1.358144	5.532292	42.526825
5787	6750.433376	54.478646	1.051461	5.535273	42.261865
5789	6752.525986	55.731710	1.354687	5.532050	41.711298
5791	6754.619253	55.719303	1.356254	5.531864	42.210780
5793	6756.712296	55.719713	1.354151	5.531852	42.380534
5797	6760.898503	55.608741	1.438282	5.530767	41.758313
5799	6762.991290	54.364941	1.049483	5.535043	39.957118
5801	6765.083927	55.731756	1.355684	5.531480	43.201121
5803	6767.177517	54.508116	1.072614	5.534986	41.462631
5805	6769.270496	55.742607	1.347675	5.531089	40.542805
5807	6771.363545	55.745420	1.358447	5.530967	42.202917
5809	6773.456562	56.656518	5.973645	5.506522	42.285865
5811	6775.550292	55.647041	1.390558	5.528846	42.008884
5813	6777.646020	55.980943	1.378712	5.530673	40.434040
5815	6779.735450	55.719745	1.359228	5.530506	41.468755
5823	6788.106881	55.712682	1.405356	5.529680	40.383791
5825	6790.200378	55.672001	1.357653	5.530054	40.326903
5827	6792.292901	54.598939	1.050168	5.533982	42.786598
5829	6794.385553	55.714663	1.341319	5.529596	41.271107
5831	6796.478691	55.739694	1.336802	5.529355	40.972495
5833	6798.572477	54.331551	1.021937	5.532674	42.125851
5835	6800.665527	56.783821	6.217509	5.503280	42.924506
5839	6804.850899	54.202299	1.168221	5.543643	40.233570
5843	6809.037260	55.710150	1.416812	5.528533	41.403266
5845	6811.128862	55.790436	1.332671	5.528956	41.242450
5847	6813.222668	54.183775	1.048377	5.532512	41.259499
5849	6815.315048	55.786304	1.336202	5.528619	40.974494
5851	6817.407926	54.428964	1.046467	5.532704	42.566849
5853	6819.501883	55.704073	1.358457	5.528661	41.634597
5857	6823.687359	55.673198	1.417910	5.527186	42.523433
5861	6827.873399	55.690911	1.412341	5.526993	41.440060
5863	6829.966488	55.703601	1.340381	5.527613	41.800425
5865	6832.059461	55.739846	1.337892	5.527389	41.431036
5867	6834.152408	54.656711	1.042031	5.531514	41.006469
5869	6836.245549	56.545220	5.145201	5.504102	41.066421
5871	6838.338411	55.678903	1.430725	5.526214	42.422312
5873	6840.431314	55.756168	1.334956	5.527201	42.142950
5875	6842.524086	55.755008	1.332952	5.526893	41.492539
5877	6844.617283	55.737798	1.344031	5.526731	40.881052
5879	6846.710114	55.757775	1.333337	5.526810	42.615782
5881	6848.802838	54.131691	1.043970	5.530631	41.172045
5883	6850.896270	56.823145	1.341228	5.519060	41.738445
5885	6852.989459	55.697571	1.398767	5.525647	42.875122
5887	6855.081877	55.745411	1.336354	5.526235	41.213279
5891	6859.267996	55.699843	1.404626	5.525203	41.779302
5893	6861.360700	54.539066	1.020667	5.529328	42.528155
5895	6863.454107	54.538302	1.022316	5.528896	41.277255
5897	6865.546919	55.737444	1.327480	5.525438	41.916403
5899	6867.640006	54.576572	1.021975	5.528718	41.386992
5901	6869.733263	54.352887	1.034343	5.529202	39.812023
5903	6871.826021	55.731940	1.322930	5.525414	42.828435
5905	6873.919136	54.431243	1.043162	5.530416	41.420968
5913	6882.290854	54.194591	1.153195	5.539138	41.519679
5915	6884.384118	55.769162	1.311012	5.524296	40.732408
5917	6886.477591	55.744160	1.319860	5.524183	41.186785
5919	6888.570236	54.511102	1.034418	5.528172	41.321058
5925	6894.849612	55.654785	1.387639	5.522706	40.376394
5927	6896.942510	55.735539	1.329062	5.523504	41.864128
5931	6901.128141	55.694362	1.390365	5.522542	42.580484
5933	6903.221620	56.491027	4.229004	5.504023	42.704365
5935	6905.314246	55.665324	1.366233	5.521945	43.589748
5937	6907.407045	55.750793	1.327389	5.523122	40.637944
5939	6909.499740	55.767339	3.177354	5.508248	41.328904
5941	6911.592156	55.541850	1.392406	5.521847	42.029794
5943	6913.685223	55.765200	1.314324	5.522594	41.699301
5949	6919.963932	55.706139	1.389279	5.521539	42.221120
5951	6922.057514	56.558387	5.505679	5.500515	40.281239
5953	6924.150530	55.741549	1.364761	5.521552	42.298667
5957	6928.336397	55.652629	1.394881	5.520909	40.124767
5959	6930.429443	54.581178	1.020640	5.525796	42.093353
5963	6934.615409	54.171988	1.117279	5.536149	41.387671
5965	6936.707705	54.226139	1.008262	5.525948	43.551985
5967	6938.801069	55.759071	1.316838	5.521231	41.278718
5969	6940.894506	54.544175	0.996125	5.524892	42.198250
5971	6942.987007	55.769604	1.298941	5.520939	44.362748
5977	6949.266087	55.734265	1.371040	5.519860	43.064063
5979	6951.359315	55.785707	1.316282	5.520309	41.343237
5981	6953.452113	55.780808	1.292238	5.520463	41.126066
5983	6955.545163	54.526107	1.020857	5.524301	41.745700
5985	6957.637876	54.200159	0.998939	5.522870	42.461337
5987	6959.731779	55.751919	1.292290	5.520278	41.195978
5989	6961.824480	56.668846	1.312628	5.513062	42.620123
5993	6966.010735	55.713537	1.350839	5.518829	42.119523
5995	6968.103822	57.707468	3.229662	5.502024	41.683266
5997	6970.196623	55.695624	1.368736	5.518402	41.689746
5999	6972.288937	54.679793	0.983271	5.522860	41.566634
6003	6976.475364	55.729597	1.334585	5.518209	42.284995
6005	6978.567401	55.798971	1.291109	5.518661	42.602267
6007	6980.661097	55.768991	1.284657	5.518827	42.031560
6009	6982.754351	57.520051	-0.629278	5.508255	42.757971
6013	6986.939112	54.485549	1.155706	5.534268	43.354195
6015	6989.032986	54.475758	0.965448	5.522247	42.045660
6019	6993.219452	54.189973	1.105344	5.532505	42.734568
6021	6995.312194	55.799694	1.281991	5.517669	44.032496
6023	6997.405363	55.765851	1.276597	5.517569	42.263396
6025	6999.498388	54.457057	0.995253	5.521705	40.878732
6027	7001.591164	56.447513	4.501494	5.498246	41.516758
6031	7005.776922	55.709284	1.348914	5.516391	40.468702
6033	7007.870387	54.624437	0.974680	5.520880	41.278031
6035	7009.963190	55.746419	1.295374	5.516715	42.650739
6037	7012.055837	54.480923	0.981063	5.520421	41.948159
6041	7016.241888	55.705861	1.376919	5.515766	40.447943
6043	7018.334845	54.403375	0.986223	5.520295	41.192948
6045	7020.428340	55.773616	1.280154	5.516515	40.868827
6047	7022.520713	55.810152	1.266227	5.516133	41.718613
6049	7024.613296	55.746272	1.267416	5.516563	42.357801
6051	7026.706301	55.794031	1.278505	5.515900	41.971331
6053	7028.799389	54.582406	0.996029	5.520014	42.509387
6055	7030.892757	56.884670	1.283581	5.508175	41.736870
6057	7032.985789	54.242009	1.101993	5.529793	41.379793
6059	7035.078496	55.806161	1.271232	5.515123	41.199897
6061	7037.171195	55.793009	1.270852	5.515287	42.088221
6063	7039.263700	56.786788	1.274558	5.508094	41.900158
6065	7041.357545	55.737070	1.353600	5.514399	42.207502
6067	7043.450461	54.466533	0.994994	5.519131	42.852544
6069	7045.543365	55.787492	1.276810	5.514701	43.314489
6071	7047.636419	55.785494	1.291819	5.514510	42.845190
6073	7049.730166	55.789192	1.284876	5.514422	39.698989
6075	7051.822656	54.572627	0.997407	5.519438	41.777433
6077	7053.915281	55.804804	1.275914	5.514288	42.521087
6079	7056.008002	56.646931	5.609751	5.492100	40.922414
6081	7058.101560	55.719955	1.366137	5.512645	42.185928
6083	7060.194727	55.732869	1.296067	5.513644	41.002915
6085	7062.287427	55.814730	1.274689	5.513743	41.747221
6087	7064.380977	55.810302	1.267108	5.513697	40.514163
6089	7066.473761	54.542626	0.965581	5.517653	41.334122
6091	7068.566066	56.598649	5.366957	5.492121	42.245259
6095	7072.752523	55.755628	1.345715	5.512475	40.735471
6097	7074.845450	54.308884	0.915612	5.514683	41.915226
6099	7076.937396	55.794506	1.291330	5.512853	41.514661
6101	7079.031429	54.317463	1.012931	5.518488	41.622412
6103	7081.124325	55.804209	1.267673	5.512626	41.250176
6105	7083.217793	55.758185	1.280825	5.512376	42.756819
6107	7085.310369	55.759790	1.269410	5.512384	41.715259
6109	7087.403185	55.781121	1.279326	5.512054	42.740804
6111	7089.496188	55.805544	1.279445	5.511969	42.177510
6113	7091.589331	54.389985	0.951337	5.514447	41.014264
6115	7093.682200	55.776471	1.266391	5.511720	41.378820
6117	7095.775219	55.783201	1.266361	5.511639	40.962301
6123	7102.054162	54.149321	1.074636	5.524406	40.954124
6125	7104.147608	55.741311	1.280537	5.511018	41.926918
6127	7106.240227	56.501882	5.377504	5.489378	42.621300
6133	7112.518761	55.706841	1.351433	5.510239	43.367921
6135	7114.611742	55.833352	1.258908	5.510977	42.556569
6137	7116.705470	56.815861	6.066333	5.485626	40.194124
6141	7120.890613	55.759087	1.350109	5.509564	42.480683
6143	7122.983834	55.803922	1.277974	5.510181	42.235531
6145	7125.076733	56.884440	1.283458	5.502689	41.898554
6147	7127.170030	55.738393	1.336635	5.509172	42.149652
6149	7129.262332	55.831247	1.267947	5.509853	41.955635
6151	7131.355631	54.475178	0.974906	5.513853	40.581415
6153	7133.448727	54.520912	0.978567	5.514559	41.895953
6155	7135.541570	55.748852	1.290463	5.509501	43.235042
6159	7139.727912	54.202450	1.103000	5.523785	39.232926
6161	7141.820577	54.749786	0.982677	5.513544	41.465140
6163	7143.913639	55.799568	1.265156	5.509096	42.664403
6165	7146.006592	55.799284	1.263316	5.508809	40.736712
6167	7148.099459	55.808800	1.279924	5.508572	43.309436
6169	7150.192586	56.487292	5.128147	5.488313	41.583463
6173	7154.378651	55.713404	1.342695	5.507728	42.665240
6175	7156.471552	55.805174	1.264985	5.508285	43.363476
6179	7160.657625	54.257973	1.096193	5.523363	41.833630
6181	7162.750475	55.805101	1.265388	5.507726	42.895254
6183	7164.843748	55.806797	1.279334	5.507587	42.617725
6185	7166.936583	56.161427	3.536927	5.491222	42.112687
6187	7169.029370	54.448579	1.093830	5.523788	41.422884
6189	7171.122924	56.874459	1.280251	5.499513	41.370357
6191	7173.215328	55.765869	1.329482	5.506401	41.935225
6193	7175.308349	55.800937	1.258403	5.507087	42.228586
6195	7177.401736	55.755021	1.272704	5.506659	41.522064
6197	7179.494355	55.814974	1.277109	5.506780	40.700427
6199	7181.587349	55.796027	1.266030	5.506628	41.350683
6201	7183.680488	55.824234	1.264813	5.506623	42.452502
6205	7187.866219	54.104914	1.094592	5.520424	40.979428
6207	7189.959521	55.793835	1.257089	5.506701	43.680399
6209	7192.051975	54.683112	0.983999	5.510587	40.846646
6215	7198.331190	55.729584	1.339774	5.505262	41.655963
6217	7200.424394	55.792737	1.267353	5.505885	42.337349
6219	7202.517226	55.798353	1.272024	5.505798	42.586726
6221	7204.610340	56.815695	1.272894	5.498746	42.122555
6223	7206.702929	55.725993	1.351250	5.504599	43.444438
6225	7208.796375	56.748730	1.278556	5.498206	42.479993
6227	7210.889713	55.703279	1.337151	5.504540	41.571156
6229	7212.982538	56.817977	1.275105	5.498107	42.231043
6233	7217.168252	55.739159	1.333224	5.504136	42.180493
6235	7219.261444	56.693374	1.268499	5.497774	42.330959
6237	7221.354103	54.126390	1.069797	5.517789	42.725604
6239	7223.447387	55.780625	1.260034	5.504402	41.620047
6241	7225.540644	56.811186	1.274170	5.497077	42.068035
6245	7229.726021	55.729878	1.338285	5.503291	41.298047
6247	7231.819473	54.543846	0.966246	5.508473	41.718126
6249	7233.912397	56.851478	1.272888	5.496590	42.349059
6255	7240.191106	55.733930	1.338944	5.502945	43.553553
6257	7242.284428	57.055190	1.275199	5.495719	42.922192
6259	7244.378155	56.054503	1.398928	5.497242	42.233275
6263	7248.563478	54.110777	1.058729	5.516389	41.771233
6265	7250.656543	55.792103	1.250639	5.502921	42.041964
6269	7254.841729	55.707883	1.341534	5.501715	41.944683
6275	7261.121256	55.726646	1.312812	5.501929	41.224712
6277	7263.214319	56.916518	1.274299	5.495126	40.789886
6279	7265.307089	54.716069	1.110409	5.519417	42.899072
6281	7267.399993	56.544353	4.522591	5.483162	41.428400
6285	7271.586708	54.302920	1.090909	5.517600	40.694261
6287	7273.680090	54.582812	0.956218	5.506125	42.464021
6289	7275.772827	55.782053	1.265808	5.501187	42.431543
6295	7282.050741	55.755762	1.311421	5.500961	41.804536
6297	7284.144655	55.683291	1.288528	5.501085	41.023888
6299	7286.236493	56.847441	1.271350	5.493588	42.687831
6301	7288.330113	54.343221	1.082139	5.516981	42.049893
6303	7290.422225	54.492240	0.970497	5.505581	42.915750
6305	7292.515882	55.782753	1.260823	5.500801	41.169170
6307	7294.608973	55.793432	1.261297	5.500565	41.917967
6309	7296.702168	56.838719	1.272451	5.492793	42.139424
6311	7298.794795	55.714955	1.341251	5.499348	42.387294
6313	7300.887315	56.568053	5.458460	5.478376	41.947487
6315	7302.980321	55.726652	1.333040	5.499003	40.107463
6317	7305.073440	54.740708	0.984148	5.504743	42.674639
6319	7307.166504	57.005162	1.279674	5.492651	42.939579
6321	7309.259494	54.262103	1.081241	5.514448	42.218740
6323	7311.352624	54.649722	0.953206	5.503354	42.324687
6325	7313.445184	55.794647	1.283523	5.499659	41.285432
6327	7315.538589	56.803403	1.249080	5.492110	42.089235
6329	7317.631618	55.722907	1.319218	5.498317	40.465156
6331	7319.725019	56.792156	1.253739	5.492004	42.400657
6333	7321.817407	55.719127	1.319211	5.498334	42.602680
6335	7323.910216	55.810141	1.265893	5.498711	43.036064
6337	7326.003804	54.580130	0.948121	5.503106	42.780218
6339	7328.096360	55.768115	1.245069	5.498954	41.670983
6341	7330.189208	54.571646	0.959707	5.502501	40.917402
6343	7332.282510	55.778311	1.248673	5.498347	41.380066
6345	7334.375497	54.497677	0.959815	5.502702	42.928896
6347	7336.468262	55.841029	1.255836	5.497876	42.517517
6349	7338.561053	56.871377	1.256297	5.490132	42.902196
6351	7340.654461	54.087581	1.058435	5.511777	42.578190
6353	7342.747788	59.612031	5.739158	5.476090	41.364150
6355	7344.840161	54.363222	1.075742	5.512545	40.955255
6357	7346.934419	56.795007	5.640541	5.474934	42.288352
6361	7351.119062	55.740159	1.307354	5.497029	40.973605
6363	7353.212247	56.886503	1.251638	5.489802	41.994530
6365	7355.305509	54.337817	1.070977	5.512163	41.617794
6373	7363.677170	54.077230	1.067274	5.510379	41.767600
6375	7365.770125	55.722568	1.238914	5.496538	42.239793
6377	7367.863407	56.687334	5.940746	5.473141	42.623689
